EXPLAIN
TAG	POTENTIODYNAMIC
TITLE	LABEL	Potentiodynamic Scan	Test &Identifier
DATE	LABEL	2017-4-16	Date
TIME	LABEL	5:06:49	Time
NOTES	NOTES	1	&Notes...
	
PSTAT	PSTAT	REF600-19025	Potentiostat
VINIT	POTEN	-5.00000E-001	T	Initial &E (V)
VFINAL	POTEN	1.50000E+000	T	Final &E (V)
SCANRATE	QUANT	5.00000E+001	Scan Ra&te (mV/s)
SAMPLETIME	QUANT	5.00000E-001	Sa&mple Period (s)
AREA	QUANT	1.00000E+000	Sample &Area (cm^2)
DENSITY	QUANT	7.87000E+000	Densit&y (g/cm^3)
EQUIV	QUANT	2.79200E+001	Equiv. &Wt
CONDIT	TWOPARAM	F	6.00000E+002	-4.00000E-001	Conditionin&g	Time(s)	E(V)
DELAY	TWOPARAM	T	2.00000E+002	0.00000E+000	Init. De&lay	Time(s)	Stab.(mV/s)
IRCOMP	TOGGLE	F	IR Com&p
OCVCURVE	TABLE	538
	Pt	T	Vf	Vm	Ach	Over
	#	s	V vs. Ref.	V	V	bits
	0	0.25	4.27897E-002	4.27897E-002	3.92778E-004	...........
	1	0.5	4.27664E-002	4.15717E-002	3.92153E-004	...........
	2	0.75	4.26288E-002	4.06952E-002	3.91444E-004	...........
	3	1	4.22451E-002	3.92153E-002	3.93944E-004	...........
	4	1.25	4.15413E-002	3.78870E-002	3.91736E-004	...........
	5	1.5	4.05418E-002	3.65409E-002	3.96111E-004	...........
	6	1.75	3.93400E-002	3.55050E-002	3.90569E-004	...........
	7	2	3.80696E-002	3.49386E-002	3.87861E-004	...........
	8	2.25	3.69581E-002	3.86033E-002	3.93153E-004	...........
	9	2.5	3.65216E-002	4.59194E-002	3.99652E-004	...........
	10	2.75	3.75451E-002	5.11729E-002	3.95694E-004	...........
	11	3	4.00602E-002	3.38534E-002	3.95569E-004	...........
	12	3.25	4.20730E-002	2.48296E-002	3.93278E-004	...........
	13	3.5	4.09046E-002	2.57518E-002	3.95319E-004	...........
	14	3.75	3.64728E-002	2.78743E-002	3.93278E-004	...........
	15	4	3.14843E-002	2.70047E-002	3.97986E-004	...........
	16	4.25	2.82447E-002	2.64501E-002	3.94028E-004	...........
	17	4.5	2.69043E-002	2.56899E-002	3.89611E-004	...........
	18	4.75	2.64612E-002	2.42986E-002	3.93819E-004	...........
	19	5	2.61509E-002	2.74112E-002	3.94486E-004	...........
	20	5.25	2.58346E-002	2.32541E-002	3.91944E-004	...........
	21	5.5	2.54785E-002	2.05863E-002	3.92528E-004	...........
	22	5.75	2.47150E-002	1.89491E-002	3.93778E-004	...........
	23	6	2.32798E-002	1.79559E-002	3.91278E-004	...........
	24	6.25	2.14465E-002	1.70302E-002	3.91569E-004	...........
	25	6.5	1.96876E-002	1.58505E-002	3.94528E-004	...........
	26	6.75	1.82244E-002	1.46727E-002	3.94819E-004	...........
	27	7	1.70016E-002	1.36802E-002	3.97069E-004	...........
	28	7.25	1.58919E-002	1.27745E-002	3.92778E-004	...........
	29	7.5	1.48330E-002	1.18105E-002	3.90986E-004	...........
	30	7.75	1.38147E-002	1.07469E-002	3.93069E-004	...........
	31	8	1.28230E-002	9.72188E-003	3.89361E-004	...........
	32	8.25	1.18337E-002	8.80602E-003	3.96361E-004	...........
	33	8.5	1.08392E-002	7.83671E-003	3.97777E-004	...........
	34	8.75	9.84930E-003	6.83211E-003	3.97944E-004	...........
	35	9	8.86913E-003	5.85735E-003	3.94319E-004	...........
	36	9.25	7.89363E-003	4.92958E-003	3.90986E-004	...........
	37	9.5	6.92231E-003	4.03949E-003	3.91444E-004	...........
	38	9.75	5.96272E-003	3.06089E-003	3.98194E-004	...........
	39	10	5.01668E-003	2.07971E-003	3.97986E-004	...........
	40	10.25	4.07298E-003	1.08759E-003	3.91903E-004	...........
	41	10.5	3.11904E-003	1.48230E-004	3.90153E-004	...........
	42	10.75	2.15525E-003	-7.46596E-004	3.97819E-004	...........
	43	11	1.19436E-003	-1.67983E-003	3.90528E-004	...........
	44	11.25	2.47531E-004	-2.61015E-003	3.94236E-004	...........
	45	11.5	-6.85507E-004	-3.53012E-003	3.84486E-004	...........
	46	11.75	-1.61114E-003	-4.43011E-003	3.80778E-004	...........
	47	12	-2.53267E-003	-5.34796E-003	3.91736E-004	...........
	48	12.25	-3.45040E-003	-6.27536E-003	3.90569E-004	...........
	49	12.5	-4.36593E-003	-7.18129E-003	3.88153E-004	...........
	50	12.75	-5.28112E-003	-8.08356E-003	3.95444E-004	...........
	51	13	-6.19526E-003	-8.99495E-003	3.88903E-004	...........
	52	13.25	-7.10702E-003	-9.91340E-003	3.95111E-004	...........
	53	13.5	-8.01673E-003	-1.07912E-002	3.94278E-004	...........
	54	13.75	-8.92316E-003	-1.16403E-002	3.87944E-004	...........
	55	14	-9.82144E-003	-1.25397E-002	3.91903E-004	...........
	56	14.25	-1.07091E-002	-1.34212E-002	3.91111E-004	...........
	57	14.5	-1.15906E-002	-1.43246E-002	3.88778E-004	...........
	58	14.75	-1.24731E-002	-1.52091E-002	3.93694E-004	...........
	59	15	-1.33584E-002	-1.60289E-002	3.93569E-004	...........
	60	15.25	-1.42391E-002	-1.68183E-002	3.88111E-004	...........
	61	15.5	-1.51027E-002	-1.76347E-002	3.89528E-004	...........
	62	15.75	-1.59436E-002	-1.85011E-002	3.85569E-004	...........
	63	16	-1.67704E-002	-1.93387E-002	3.90361E-004	...........
	64	16.25	-1.75965E-002	-2.01276E-002	3.91611E-004	...........
	65	16.5	-1.84253E-002	-2.09543E-002	3.97236E-004	...........
	66	16.75	-1.92519E-002	-2.17829E-002	3.94903E-004	...........
	67	17	-2.00746E-002	-2.26183E-002	3.89778E-004	...........
	68	17.25	-2.08962E-002	-2.33955E-002	3.94111E-004	...........
	69	17.5	-2.17166E-002	-2.42140E-002	3.92361E-004	...........
	70	17.75	-2.25321E-002	-2.50040E-002	3.90028E-004	...........
	71	18	-2.33405E-002	-2.57840E-002	3.92819E-004	...........
	72	18.25	-2.41417E-002	-2.65788E-002	3.98236E-004	...........
	73	18.5	-2.49369E-002	-2.73772E-002	3.93986E-004	...........
	74	18.75	-2.57292E-002	-2.81881E-002	3.89694E-004	...........
	75	19	-2.65229E-002	-2.89754E-002	3.91819E-004	...........
	76	19.25	-2.73159E-002	-2.95849E-002	3.89528E-004	...........
	77	19.5	-2.80801E-002	-2.95948E-002	3.93028E-004	...........
	78	19.75	-2.87600E-002	-3.04919E-002	3.94819E-004	...........
	79	20	-2.93465E-002	-3.15786E-002	3.86361E-004	...........
	80	20.25	-2.99350E-002	-3.24709E-002	3.89569E-004	...........
	81	20.5	-3.06325E-002	-3.31874E-002	3.85778E-004	...........
	82	20.75	-3.14400E-002	-3.39236E-002	3.89028E-004	...........
	83	21	-3.22819E-002	-3.47624E-002	3.91194E-004	...........
	84	21.25	-3.31047E-002	-3.55711E-002	3.87319E-004	...........
	85	21.5	-3.39082E-002	-3.64544E-002	3.94653E-004	...........
	86	21.75	-3.47184E-002	-3.74863E-002	3.97777E-004	...........
	87	22	-3.55579E-002	-3.81739E-002	3.93278E-004	...........
	88	22.25	-3.64247E-002	-3.90624E-002	3.96028E-004	...........
	89	22.5	-3.72942E-002	-3.99056E-002	3.91778E-004	...........
	90	22.75	-3.81476E-002	-4.06003E-002	3.89819E-004	...........
	91	23	-3.89762E-002	-4.12939E-002	3.93486E-004	...........
	92	23.25	-3.97699E-002	-4.20296E-002	3.93069E-004	...........
	93	23.5	-4.05257E-002	-4.27430E-002	3.96819E-004	...........
	94	23.75	-4.12553E-002	-4.34637E-002	3.92278E-004	...........
	95	24	-4.19743E-002	-4.42003E-002	3.92653E-004	...........
	96	24.25	-4.26919E-002	-4.48703E-002	3.88528E-004	...........
	97	24.5	-4.34084E-002	-4.55904E-002	3.86819E-004	...........
	98	24.75	-4.41217E-002	-4.63376E-002	3.91611E-004	...........
	99	25	-4.48345E-002	-4.70825E-002	3.89903E-004	...........
	100	25.25	-4.55536E-002	-4.77912E-002	3.94194E-004	...........
	101	25.5	-4.62810E-002	-4.85520E-002	3.95986E-004	...........
	102	25.75	-4.70135E-002	-4.92696E-002	3.87528E-004	...........
	103	26	-4.77468E-002	-4.99437E-002	3.93653E-004	...........
	104	26.25	-4.84738E-002	-5.06037E-002	3.86611E-004	...........
	105	26.5	-4.91858E-002	-5.13019E-002	3.93444E-004	...........
	106	26.75	-4.98809E-002	-5.19788E-002	3.90903E-004	...........
	107	27	-5.05656E-002	-5.26748E-002	3.89944E-004	...........
	108	27.25	-5.12488E-002	-5.33978E-002	3.86778E-004	...........
	109	27.5	-5.19371E-002	-5.41063E-002	3.94361E-004	...........
	110	27.75	-5.26336E-002	-5.47745E-002	3.90444E-004	...........
	111	28	-5.33343E-002	-5.54553E-002	3.84528E-004	...........
	112	28.25	-5.40311E-002	-5.61317E-002	3.93028E-004	...........
	113	28.5	-5.47197E-002	-5.67963E-002	3.95986E-004	...........
	114	28.75	-5.54002E-002	-5.74662E-002	3.88611E-004	...........
	115	29	-5.60755E-002	-5.81724E-002	3.91069E-004	...........
	116	29.25	-5.67504E-002	-5.88618E-002	3.84611E-004	...........
	117	29.5	-5.74272E-002	-5.93917E-002	3.87361E-004	...........
	118	29.75	-5.80934E-002	-5.98758E-002	3.83778E-004	...........
	119	30	-5.87209E-002	-6.02140E-002	3.92486E-004	...........
	120	30.25	-5.92897E-002	-6.10430E-002	3.90611E-004	...........
	121	30.5	-5.98259E-002	-6.18510E-002	3.89278E-004	...........
	122	30.75	-6.03926E-002	-6.23997E-002	3.89903E-004	...........
	123	31	-6.10219E-002	-6.30582E-002	3.91444E-004	...........
	124	31.25	-6.16887E-002	-6.37504E-002	3.87361E-004	...........
	125	31.5	-6.23582E-002	-6.43369E-002	3.91319E-004	...........
	126	31.75	-6.30220E-002	-6.52306E-002	3.86944E-004	...........
	127	32	-6.36979E-002	-6.60921E-002	3.87194E-004	...........
	128	32.25	-6.44086E-002	-6.65135E-002	3.85194E-004	...........
	129	32.5	-6.51400E-002	-6.71556E-002	3.84153E-004	...........
	130	32.75	-6.58483E-002	-6.79354E-002	3.84736E-004	...........
	131	33	-6.65208E-002	-6.86106E-002	3.86028E-004	...........
	132	33.25	-6.71814E-002	-6.90986E-002	3.90486E-004	...........
	133	33.5	-6.78371E-002	-6.96899E-002	3.87694E-004	...........
	134	33.75	-6.84711E-002	-7.03490E-002	3.85028E-004	...........
	135	34	-6.90806E-002	-7.09356E-002	3.84361E-004	...........
	136	34.25	-6.96810E-002	-7.15281E-002	3.89611E-004	...........
	137	34.5	-7.02831E-002	-7.21632E-002	3.86111E-004	...........
	138	34.75	-7.08878E-002	-7.27481E-002	3.89403E-004	...........
	139	35	-7.14936E-002	-7.33277E-002	3.88236E-004	...........
	140	35.25	-7.20968E-002	-7.39165E-002	3.86069E-004	...........
	141	35.5	-7.26939E-002	-7.45124E-002	3.83736E-004	...........
	142	35.75	-7.32855E-002	-7.50980E-002	3.85361E-004	...........
	143	36	-7.38746E-002	-7.56740E-002	3.81486E-004	...........
	144	36.25	-7.44625E-002	-7.62748E-002	3.91528E-004	...........
	145	36.5	-7.50492E-002	-7.68366E-002	3.87986E-004	...........
	146	36.75	-7.56328E-002	-7.73478E-002	3.82111E-004	...........
	147	37	-7.62076E-002	-7.78992E-002	3.85236E-004	...........
	148	37.25	-7.67693E-002	-7.84964E-002	3.94028E-004	...........
	149	37.5	-7.73235E-002	-7.90610E-002	3.87986E-004	...........
	150	37.75	-7.78803E-002	-7.96085E-002	3.88278E-004	...........
	151	38	-7.84430E-002	-8.01876E-002	3.91528E-004	...........
	152	38.25	-7.90091E-002	-8.07915E-002	3.95653E-004	...........
	153	38.5	-7.95780E-002	-8.13108E-002	3.91028E-004	...........
	154	38.75	-8.01484E-002	-8.18695E-002	3.90069E-004	...........
	155	39	-8.07153E-002	-8.24478E-002	3.93361E-004	...........
	156	39.25	-8.12775E-002	-8.30312E-002	3.84569E-004	...........
	157	39.5	-8.18404E-002	-8.35904E-002	3.88861E-004	...........
	158	39.75	-8.24075E-002	-8.41613E-002	3.88653E-004	...........
	159	40	-8.29774E-002	-8.47264E-002	3.87153E-004	...........
	160	40.25	-8.35456E-002	-8.52181E-002	3.85153E-004	...........
	161	40.5	-8.41053E-002	-8.57204E-002	3.92028E-004	...........
	162	40.75	-8.46493E-002	-8.62699E-002	3.92361E-004	...........
	163	41	-8.51792E-002	-8.68326E-002	3.90278E-004	...........
	164	41.25	-8.57058E-002	-8.73386E-002	3.90778E-004	...........
	165	41.5	-8.62364E-002	-8.78651E-002	3.89528E-004	...........
	166	41.75	-8.67690E-002	-8.84003E-002	3.89694E-004	...........
	167	42	-8.72993E-002	-8.89013E-002	3.94153E-004	...........
	168	42.25	-8.78262E-002	-8.94500E-002	3.89819E-004	...........
	169	42.5	-8.83506E-002	-8.99494E-002	3.89611E-004	...........
	170	42.75	-8.88737E-002	-9.04876E-002	3.93903E-004	...........
	171	43	-8.93976E-002	-9.10656E-002	3.84903E-004	...........
	172	43.25	-8.99274E-002	-9.16418E-002	3.93111E-004	...........
	173	43.5	-9.04685E-002	-9.21455E-002	4.02944E-004	...........
	174	43.75	-9.10162E-002	-9.25713E-002	3.86486E-004	...........
	175	44	-9.15533E-002	-9.30872E-002	3.93903E-004	...........
	176	44.25	-9.20689E-002	-9.36644E-002	3.91111E-004	...........
	177	44.5	-9.25725E-002	-9.41381E-002	3.86236E-004	...........
	178	44.75	-9.30776E-002	-9.45847E-002	3.92236E-004	...........
	179	45	-9.35817E-002	-9.50368E-002	3.89486E-004	...........
	180	45.25	-9.40735E-002	-9.55621E-002	3.94569E-004	...........
	181	45.5	-9.45541E-002	-9.60748E-002	3.86528E-004	...........
	182	45.75	-9.50350E-002	-9.65210E-002	3.95444E-004	...........
	183	46	-9.55214E-002	-9.69971E-002	3.95319E-004	...........
	184	46.25	-9.60077E-002	-9.74949E-002	3.99819E-004	...........
	185	46.5	-9.64899E-002	-9.79589E-002	3.99277E-004	...........
	186	46.75	-9.69695E-002	-9.84491E-002	3.92944E-004	...........
	187	47	-9.74496E-002	-9.89649E-002	3.95278E-004	...........
	188	47.25	-9.79328E-002	-9.94280E-002	3.88944E-004	...........
	189	47.5	-9.84187E-002	-9.98491E-002	3.90694E-004	...........
	190	47.75	-9.89000E-002	-1.00324E-001	3.85611E-004	...........
	191	48	-9.93699E-002	-1.00768E-001	3.91861E-004	...........
	192	48.25	-9.98293E-002	-1.01227E-001	3.91778E-004	...........
	193	48.5	-1.00284E-001	-1.01668E-001	3.94278E-004	...........
	194	48.75	-1.00736E-001	-1.02137E-001	3.92778E-004	...........
	195	49	-1.01189E-001	-1.02586E-001	3.88236E-004	...........
	196	49.25	-1.01642E-001	-1.03038E-001	3.91861E-004	...........
	197	49.5	-1.02096E-001	-1.03488E-001	3.90528E-004	...........
	198	49.75	-1.02549E-001	-1.03927E-001	3.88528E-004	...........
	199	50	-1.02999E-001	-1.04331E-001	3.90278E-004	...........
	200	50.25	-1.03443E-001	-1.04779E-001	3.88611E-004	...........
	201	50.5	-1.03881E-001	-1.05267E-001	3.93861E-004	...........
	202	50.75	-1.04319E-001	-1.05732E-001	3.92653E-004	...........
	203	51	-1.04766E-001	-1.06099E-001	3.89653E-004	...........
	204	51.25	-1.05213E-001	-1.06467E-001	3.96402E-004	...........
	205	51.5	-1.05647E-001	-1.06911E-001	3.89444E-004	...........
	206	51.75	-1.06063E-001	-1.07344E-001	3.89653E-004	...........
	207	52	-1.06467E-001	-1.07561E-001	3.94944E-004	...........
	208	52.25	-1.06851E-001	-1.07478E-001	3.94778E-004	...........
	209	52.5	-1.07180E-001	-1.08050E-001	3.89069E-004	...........
	210	52.75	-1.07455E-001	-1.08698E-001	3.96819E-004	...........
	211	53	-1.07751E-001	-1.09262E-001	3.91528E-004	...........
	212	53.25	-1.08142E-001	-1.09723E-001	3.94486E-004	...........
	213	53.5	-1.08625E-001	-1.10102E-001	3.87986E-004	...........
	214	53.75	-1.09135E-001	-1.10481E-001	3.93819E-004	...........
	215	54	-1.09619E-001	-1.10948E-001	3.94611E-004	...........
	216	54.25	-1.10062E-001	-1.11295E-001	3.93028E-004	...........
	217	54.5	-1.10476E-001	-1.11551E-001	3.89028E-004	...........
	218	54.75	-1.10867E-001	-1.12047E-001	3.90528E-004	...........
	219	55	-1.11250E-001	-1.12982E-001	3.90361E-004	...........
	220	55.25	-1.11675E-001	-1.13264E-001	3.96111E-004	...........
	221	55.5	-1.12170E-001	-1.13600E-001	3.89986E-004	...........
	222	55.75	-1.12690E-001	-1.14063E-001	3.90903E-004	...........
	223	56	-1.13175E-001	-1.14530E-001	3.92653E-004	...........
	224	56.25	-1.13619E-001	-1.14892E-001	3.94278E-004	...........
	225	56.5	-1.14042E-001	-1.15205E-001	3.90403E-004	...........
	226	56.75	-1.14448E-001	-1.15603E-001	3.98694E-004	...........
	227	57	-1.14836E-001	-1.16062E-001	3.98944E-004	...........
	228	57.25	-1.15216E-001	-1.16372E-001	3.93986E-004	...........
	229	57.5	-1.15597E-001	-1.16721E-001	3.92153E-004	...........
	230	57.75	-1.15976E-001	-1.17106E-001	3.92611E-004	...........
	231	58	-1.16346E-001	-1.17483E-001	3.90153E-004	...........
	232	58.25	-1.16712E-001	-1.17850E-001	3.89986E-004	...........
	233	58.5	-1.17080E-001	-1.18234E-001	3.95236E-004	...........
	234	58.75	-1.17451E-001	-1.18618E-001	3.96694E-004	...........
	235	59	-1.17827E-001	-1.18989E-001	3.93819E-004	...........
	236	59.25	-1.18205E-001	-1.19378E-001	3.91028E-004	...........
	237	59.5	-1.18585E-001	-1.19772E-001	3.98027E-004	...........
	238	59.75	-1.18966E-001	-1.20125E-001	3.95403E-004	...........
	239	60	-1.19347E-001	-1.20480E-001	3.99027E-004	...........
	240	60.25	-1.19725E-001	-1.20887E-001	3.95319E-004	...........
	241	60.5	-1.20099E-001	-1.21291E-001	3.91778E-004	...........
	242	60.75	-1.20475E-001	-1.21633E-001	3.94319E-004	...........
	243	61	-1.20855E-001	-1.21979E-001	3.88986E-004	...........
	244	61.25	-1.21232E-001	-1.22338E-001	3.95319E-004	...........
	245	61.5	-1.21598E-001	-1.22689E-001	3.95778E-004	...........
	246	61.75	-1.21956E-001	-1.23011E-001	3.98277E-004	...........
	247	62	-1.22307E-001	-1.23385E-001	3.85694E-004	...........
	248	62.25	-1.22655E-001	-1.23779E-001	3.92736E-004	...........
	249	62.5	-1.23007E-001	-1.24104E-001	3.88569E-004	...........
	250	62.75	-1.23364E-001	-1.24411E-001	3.84028E-004	...........
	251	63	-1.23719E-001	-1.24776E-001	3.88694E-004	...........
	252	63.25	-1.24066E-001	-1.25139E-001	3.86986E-004	...........
	253	63.5	-1.24408E-001	-1.25464E-001	3.86986E-004	...........
	254	63.75	-1.24753E-001	-1.25832E-001	3.89569E-004	...........
	255	64	-1.25100E-001	-1.26197E-001	3.86486E-004	...........
	256	64.25	-1.25451E-001	-1.26527E-001	3.85444E-004	...........
	257	64.5	-1.25803E-001	-1.26856E-001	3.89028E-004	...........
	258	64.75	-1.26152E-001	-1.27192E-001	3.88861E-004	...........
	259	65	-1.26495E-001	-1.27503E-001	3.92778E-004	...........
	260	65.25	-1.26829E-001	-1.27807E-001	3.90528E-004	...........
	261	65.5	-1.27155E-001	-1.28142E-001	3.92528E-004	...........
	262	65.75	-1.27476E-001	-1.28482E-001	3.93861E-004	...........
	263	66	-1.27797E-001	-1.28813E-001	3.91861E-004	...........
	264	66.25	-1.28123E-001	-1.29156E-001	3.90028E-004	...........
	265	66.5	-1.28455E-001	-1.29504E-001	3.89153E-004	...........
	266	66.75	-1.28791E-001	-1.29835E-001	3.87611E-004	...........
	267	67	-1.29131E-001	-1.30162E-001	3.83778E-004	...........
	268	67.25	-1.29469E-001	-1.30475E-001	3.88736E-004	...........
	269	67.5	-1.29803E-001	-1.30817E-001	3.86944E-004	...........
	270	67.75	-1.30133E-001	-1.31144E-001	3.94069E-004	...........
	271	68	-1.30461E-001	-1.31483E-001	3.92403E-004	...........
	272	68.25	-1.30790E-001	-1.31830E-001	3.90319E-004	...........
	273	68.5	-1.31122E-001	-1.32093E-001	3.94444E-004	...........
	274	68.75	-1.31451E-001	-1.32387E-001	3.94444E-004	...........
	275	69	-1.31769E-001	-1.32702E-001	3.95153E-004	...........
	276	69.25	-1.32076E-001	-1.33007E-001	3.92236E-004	...........
	277	69.5	-1.32377E-001	-1.33324E-001	3.79361E-004	...........
	278	69.75	-1.32680E-001	-1.33612E-001	3.89069E-004	...........
	279	70	-1.32985E-001	-1.33933E-001	3.87736E-004	...........
	280	70.25	-1.33292E-001	-1.34245E-001	3.87944E-004	...........
	281	70.5	-1.33599E-001	-1.34531E-001	3.95861E-004	...........
	282	70.75	-1.33905E-001	-1.34820E-001	3.93819E-004	...........
	283	71	-1.34209E-001	-1.35130E-001	3.94111E-004	...........
	284	71.25	-1.34509E-001	-1.35449E-001	3.90069E-004	...........
	285	71.5	-1.34808E-001	-1.35738E-001	3.87319E-004	...........
	286	71.75	-1.35111E-001	-1.36041E-001	3.89028E-004	...........
	287	72	-1.35414E-001	-1.36338E-001	3.96361E-004	...........
	288	72.25	-1.35714E-001	-1.36527E-001	3.94319E-004	...........
	289	72.5	-1.36003E-001	-1.36810E-001	3.94653E-004	...........
	290	72.75	-1.36276E-001	-1.37090E-001	3.89444E-004	...........
	291	73	-1.36539E-001	-1.37397E-001	3.93653E-004	...........
	292	73.25	-1.36805E-001	-1.37683E-001	3.96111E-004	...........
	293	73.5	-1.37081E-001	-1.37940E-001	4.02319E-004	...........
	294	73.75	-1.37365E-001	-1.38249E-001	3.97861E-004	...........
	295	74	-1.37650E-001	-1.38536E-001	3.89819E-004	...........
	296	74.25	-1.37935E-001	-1.38797E-001	3.90778E-004	...........
	297	74.5	-1.38220E-001	-1.39079E-001	3.95486E-004	...........
	298	74.75	-1.38501E-001	-1.39327E-001	3.96569E-004	...........
	299	75	-1.38778E-001	-1.39611E-001	3.89778E-004	...........
	300	75.25	-1.39049E-001	-1.39865E-001	3.87778E-004	...........
	301	75.5	-1.39317E-001	-1.40165E-001	3.91694E-004	...........
	302	75.75	-1.39586E-001	-1.40436E-001	3.93278E-004	...........
	303	76	-1.39859E-001	-1.40696E-001	3.98069E-004	...........
	304	76.25	-1.40133E-001	-1.40929E-001	3.95403E-004	...........
	305	76.5	-1.40402E-001	-1.41162E-001	3.97736E-004	...........
	306	76.75	-1.40660E-001	-1.41398E-001	3.91819E-004	...........
	307	77	-1.40906E-001	-1.41623E-001	3.94111E-004	...........
	308	77.25	-1.41145E-001	-1.41898E-001	3.97153E-004	...........
	309	77.5	-1.41382E-001	-1.42144E-001	3.98152E-004	...........
	310	77.75	-1.41624E-001	-1.42405E-001	4.01236E-004	...........
	311	78	-1.41873E-001	-1.42641E-001	3.93111E-004	...........
	312	78.25	-1.42125E-001	-1.42909E-001	3.96694E-004	...........
	313	78.5	-1.42378E-001	-1.43150E-001	3.93903E-004	...........
	314	78.75	-1.42630E-001	-1.43381E-001	3.90944E-004	...........
	315	79	-1.42879E-001	-1.43620E-001	3.97736E-004	...........
	316	79.25	-1.43123E-001	-1.43843E-001	4.02777E-004	...........
	317	79.5	-1.43362E-001	-1.44055E-001	3.95361E-004	...........
	318	79.75	-1.43594E-001	-1.44291E-001	3.98527E-004	...........
	319	80	-1.43822E-001	-1.44525E-001	3.92778E-004	...........
	320	80.25	-1.44047E-001	-1.44721E-001	4.00736E-004	...........
	321	80.5	-1.44272E-001	-1.44952E-001	3.94986E-004	...........
	322	80.75	-1.44495E-001	-1.45198E-001	3.98944E-004	...........
	323	81	-1.44718E-001	-1.45428E-001	4.03027E-004	...........
	324	81.25	-1.44944E-001	-1.45644E-001	3.98569E-004	...........
	325	81.5	-1.45173E-001	-1.45871E-001	4.00277E-004	...........
	326	81.75	-1.45402E-001	-1.46117E-001	3.97569E-004	...........
	327	82	-1.45631E-001	-1.46336E-001	3.99777E-004	...........
	328	82.25	-1.45860E-001	-1.46560E-001	3.99944E-004	...........
	329	82.5	-1.46090E-001	-1.46800E-001	4.01861E-004	...........
	330	82.75	-1.46315E-001	-1.46818E-001	3.99069E-004	...........
	331	83	-1.46513E-001	-1.46480E-001	3.97944E-004	...........
	332	83.25	-1.46641E-001	-1.46728E-001	4.00736E-004	...........
	333	83.5	-1.46695E-001	-1.47246E-001	4.03444E-004	...........
	334	83.75	-1.46756E-001	-1.47603E-001	4.01361E-004	...........
	335	84	-1.46916E-001	-1.47900E-001	3.90861E-004	...........
	336	84.25	-1.47187E-001	-1.48175E-001	4.00194E-004	...........
	337	84.5	-1.47511E-001	-1.48354E-001	3.95819E-004	...........
	338	84.75	-1.47824E-001	-1.48492E-001	4.01611E-004	...........
	339	85	-1.48093E-001	-1.48726E-001	3.98444E-004	...........
	340	85.25	-1.48326E-001	-1.49373E-001	4.00611E-004	...........
	341	85.5	-1.48568E-001	-1.49490E-001	4.00652E-004	...........
	342	85.75	-1.48852E-001	-1.49619E-001	4.00527E-004	...........
	343	86	-1.49150E-001	-1.49900E-001	4.07819E-004	...........
	344	86.25	-1.49420E-001	-1.50165E-001	4.01611E-004	...........
	345	86.5	-1.49661E-001	-1.50314E-001	4.02402E-004	...........
	346	86.75	-1.49886E-001	-1.50491E-001	4.02611E-004	...........
	347	87	-1.50100E-001	-1.50721E-001	3.99486E-004	...........
	348	87.25	-1.50303E-001	-1.50945E-001	4.07861E-004	...........
	349	87.5	-1.50503E-001	-1.51137E-001	3.95903E-004	...........
	350	87.75	-1.50708E-001	-1.51373E-001	4.07569E-004	...........
	351	88	-1.50919E-001	-1.51596E-001	4.07861E-004	...........
	352	88.25	-1.51134E-001	-1.51752E-001	4.08736E-004	...........
	353	88.5	-1.51346E-001	-1.51933E-001	4.02236E-004	...........
	354	88.75	-1.51549E-001	-1.52111E-001	4.04944E-004	...........
	355	89	-1.51739E-001	-1.52285E-001	4.05486E-004	...........
	356	89.25	-1.51921E-001	-1.52470E-001	4.03819E-004	...........
	357	89.5	-1.52098E-001	-1.52645E-001	3.98319E-004	...........
	358	89.75	-1.52276E-001	-1.52839E-001	4.02027E-004	...........
	359	90	-1.52455E-001	-1.53028E-001	4.04569E-004	...........
	360	90.25	-1.52638E-001	-1.53188E-001	4.02277E-004	...........
	361	90.5	-1.52817E-001	-1.53186E-001	4.03277E-004	...........
	362	90.75	-1.52974E-001	-1.53053E-001	3.98361E-004	...........
	363	91	-1.53084E-001	-1.53379E-001	3.96611E-004	...........
	364	91.25	-1.53159E-001	-1.53721E-001	3.98694E-004	...........
	365	91.5	-1.53263E-001	-1.54167E-001	3.97319E-004	...........
	366	91.75	-1.53459E-001	-1.54664E-001	3.93194E-004	...........
	367	92	-1.53759E-001	-1.54799E-001	4.02986E-004	...........
	368	92.25	-1.54120E-001	-1.55104E-001	4.00736E-004	...........
	369	92.5	-1.54479E-001	-1.55474E-001	4.04944E-004	...........
	370	92.75	-1.54809E-001	-1.55799E-001	4.00569E-004	...........
	371	93	-1.55121E-001	-1.55936E-001	3.98361E-004	...........
	372	93.25	-1.55414E-001	-1.55846E-001	3.98319E-004	...........
	373	93.5	-1.55650E-001	-1.55860E-001	3.95569E-004	...........
	374	93.75	-1.55800E-001	-1.56017E-001	4.00819E-004	...........
	375	94	-1.55880E-001	-1.56145E-001	3.91236E-004	...........
	376	94.25	-1.55943E-001	-1.56266E-001	3.93361E-004	...........
	377	94.5	-1.56031E-001	-1.56669E-001	3.94819E-004	...........
	378	94.75	-1.56167E-001	-1.56851E-001	3.99861E-004	...........
	379	95	-1.56355E-001	-1.56991E-001	3.99402E-004	...........
	380	95.25	-1.56573E-001	-1.57184E-001	3.93944E-004	...........
	381	95.5	-1.56788E-001	-1.57346E-001	3.96111E-004	...........
	382	95.75	-1.56984E-001	-1.57514E-001	3.90319E-004	...........
	383	96	-1.57163E-001	-1.57651E-001	3.91319E-004	...........
	384	96.25	-1.57330E-001	-1.57764E-001	3.97527E-004	...........
	385	96.5	-1.57486E-001	-1.57930E-001	3.97527E-004	...........
	386	96.75	-1.57632E-001	-1.58119E-001	3.94444E-004	...........
	387	97	-1.57779E-001	-1.58263E-001	3.91986E-004	...........
	388	97.25	-1.57932E-001	-1.58402E-001	3.94528E-004	...........
	389	97.5	-1.58089E-001	-1.58570E-001	3.96069E-004	...........
	390	97.75	-1.58246E-001	-1.58751E-001	3.96778E-004	...........
	391	98	-1.58402E-001	-1.58831E-001	3.93444E-004	...........
	392	98.25	-1.58554E-001	-1.58906E-001	3.95111E-004	...........
	393	98.5	-1.58693E-001	-1.59076E-001	3.90986E-004	...........
	394	98.75	-1.58818E-001	-1.59233E-001	3.96569E-004	...........
	395	99	-1.58940E-001	-1.59344E-001	4.02152E-004	...........
	396	99.25	-1.59068E-001	-1.59417E-001	4.05111E-004	...........
	397	99.5	-1.59196E-001	-1.59597E-001	4.00194E-004	...........
	398	99.75	-1.59321E-001	-1.59729E-001	4.01111E-004	...........
	399	100	-1.59447E-001	-1.59857E-001	4.06069E-004	...........
	400	100.25	-1.59576E-001	-1.59863E-001	3.97486E-004	...........
	401	100.5	-1.59694E-001	-1.59812E-001	4.06777E-004	...........
	402	100.75	-1.59784E-001	-1.60062E-001	4.04527E-004	...........
	403	101	-1.59855E-001	-1.60285E-001	3.95069E-004	...........
	404	101.25	-1.59946E-001	-1.60549E-001	3.97319E-004	...........
	405	101.5	-1.60097E-001	-1.61189E-001	3.97027E-004	...........
	406	101.75	-1.60344E-001	-1.61941E-001	3.99069E-004	...........
	407	102	-1.60720E-001	-1.62464E-001	3.99611E-004	...........
	408	102.25	-1.61212E-001	-1.62526E-001	3.98569E-004	...........
	409	102.5	-1.61736E-001	-1.62912E-001	3.90861E-004	...........
	410	102.75	-1.62209E-001	-1.63831E-001	3.97444E-004	...........
	411	103	-1.62645E-001	-1.64148E-001	3.99402E-004	...........
	412	103.25	-1.63100E-001	-1.64280E-001	3.96861E-004	...........
	413	103.5	-1.63556E-001	-1.64359E-001	3.95653E-004	...........
	414	103.75	-1.63935E-001	-1.64472E-001	3.96402E-004	...........
	415	104	-1.64196E-001	-1.64621E-001	3.96819E-004	...........
	416	104.25	-1.64365E-001	-1.64713E-001	3.95486E-004	...........
	417	104.5	-1.64490E-001	-1.64813E-001	4.00236E-004	...........
	418	104.75	-1.64600E-001	-1.64909E-001	3.98819E-004	...........
	419	105	-1.64702E-001	-1.64959E-001	4.00277E-004	...........
	420	105.25	-1.64795E-001	-1.64876E-001	4.00444E-004	...........
	421	105.5	-1.64864E-001	-1.64950E-001	4.03902E-004	...........
	422	105.75	-1.64907E-001	-1.65071E-001	3.97527E-004	...........
	423	106	-1.64940E-001	-1.65153E-001	4.00569E-004	...........
	424	106.25	-1.64987E-001	-1.65202E-001	3.97736E-004	...........
	425	106.5	-1.65054E-001	-1.65303E-001	3.97027E-004	...........
	426	106.75	-1.65131E-001	-1.65392E-001	3.98111E-004	...........
	427	107	-1.65211E-001	-1.65464E-001	4.04652E-004	...........
	428	107.25	-1.65294E-001	-1.65542E-001	3.99986E-004	...........
	429	107.5	-1.65378E-001	-1.65679E-001	3.91278E-004	...........
	430	107.75	-1.65465E-001	-1.65768E-001	3.93861E-004	...........
	431	108	-1.65557E-001	-1.65833E-001	3.93486E-004	...........
	432	108.25	-1.65653E-001	-1.65919E-001	3.97236E-004	...........
	433	108.5	-1.65745E-001	-1.65990E-001	3.94611E-004	...........
	434	108.75	-1.65829E-001	-1.66048E-001	3.86694E-004	...........
	435	109	-1.65907E-001	-1.66134E-001	3.91153E-004	...........
	436	109.25	-1.65982E-001	-1.66265E-001	3.97277E-004	...........
	437	109.5	-1.66060E-001	-1.66343E-001	4.01611E-004	...........
	438	109.75	-1.66147E-001	-1.66415E-001	4.01736E-004	...........
	439	110	-1.66238E-001	-1.66500E-001	4.00236E-004	...........
	440	110.25	-1.66327E-001	-1.66593E-001	3.91569E-004	...........
	441	110.5	-1.66413E-001	-1.66671E-001	4.00277E-004	...........
	442	110.75	-1.66498E-001	-1.66778E-001	3.93403E-004	...........
	443	111	-1.66586E-001	-1.66920E-001	3.89153E-004	...........
	444	111.25	-1.66680E-001	-1.67001E-001	3.87903E-004	...........
	445	111.5	-1.66781E-001	-1.67002E-001	3.96236E-004	...........
	446	111.75	-1.66876E-001	-1.67045E-001	3.99319E-004	...........
	447	112	-1.66953E-001	-1.67171E-001	4.01277E-004	...........
	448	112.25	-1.67016E-001	-1.67249E-001	3.96694E-004	...........
	449	112.5	-1.67082E-001	-1.67340E-001	3.94069E-004	...........
	450	112.75	-1.67158E-001	-1.67449E-001	3.97444E-004	...........
	451	113	-1.67245E-001	-1.67549E-001	4.02736E-004	...........
	452	113.25	-1.67339E-001	-1.67634E-001	3.97944E-004	...........
	453	113.5	-1.67437E-001	-1.67738E-001	4.02027E-004	...........
	454	113.75	-1.67536E-001	-1.67871E-001	3.96528E-004	...........
	455	114	-1.67636E-001	-1.67959E-001	4.02694E-004	...........
	456	114.25	-1.67741E-001	-1.68064E-001	3.97527E-004	...........
	457	114.5	-1.67847E-001	-1.68151E-001	3.99486E-004	...........
	458	114.75	-1.67950E-001	-1.68226E-001	4.04111E-004	...........
	459	115	-1.68047E-001	-1.68304E-001	4.01819E-004	...........
	460	115.25	-1.68137E-001	-1.68391E-001	4.04611E-004	...........
	461	115.5	-1.68221E-001	-1.68520E-001	3.99111E-004	...........
	462	115.75	-1.68308E-001	-1.68606E-001	3.99777E-004	...........
	463	116	-1.68401E-001	-1.68708E-001	3.99027E-004	...........
	464	116.25	-1.68500E-001	-1.68827E-001	3.98611E-004	...........
	465	116.5	-1.68602E-001	-1.68949E-001	3.92986E-004	...........
	466	116.75	-1.68709E-001	-1.69031E-001	4.02027E-004	...........
	467	117	-1.68817E-001	-1.69102E-001	4.00861E-004	...........
	468	117.25	-1.68920E-001	-1.69184E-001	3.98277E-004	...........
	469	117.5	-1.69013E-001	-1.69239E-001	4.00902E-004	...........
	470	117.75	-1.69096E-001	-1.69297E-001	3.94694E-004	...........
	471	118	-1.69169E-001	-1.69403E-001	4.02819E-004	...........
	472	118.25	-1.69239E-001	-1.69472E-001	3.95986E-004	...........
	473	118.5	-1.69311E-001	-1.69545E-001	3.95861E-004	...........
	474	118.75	-1.69387E-001	-1.69604E-001	4.00027E-004	...........
	475	119	-1.69462E-001	-1.69702E-001	4.02777E-004	...........
	476	119.25	-1.69537E-001	-1.69792E-001	3.96236E-004	...........
	477	119.5	-1.69614E-001	-1.69870E-001	3.98652E-004	...........
	478	119.75	-1.69696E-001	-1.69980E-001	4.01486E-004	...........
	479	120	-1.69783E-001	-1.70087E-001	3.99027E-004	...........
	480	120.25	-1.69874E-001	-1.70100E-001	3.97277E-004	...........
	481	120.5	-1.69963E-001	-1.70154E-001	3.98819E-004	...........
	482	120.75	-1.70040E-001	-1.70230E-001	3.99236E-004	...........
	483	121	-1.70105E-001	-1.70314E-001	4.02277E-004	...........
	484	121.25	-1.70166E-001	-1.70355E-001	3.99236E-004	...........
	485	121.5	-1.70229E-001	-1.70438E-001	3.97069E-004	...........
	486	121.75	-1.70295E-001	-1.70537E-001	4.03069E-004	...........
	487	122	-1.70365E-001	-1.70582E-001	4.00819E-004	...........
	488	122.25	-1.70438E-001	-1.70668E-001	4.00402E-004	...........
	489	122.5	-1.70514E-001	-1.70798E-001	4.06569E-004	...........
	490	122.75	-1.70594E-001	-1.70878E-001	4.00527E-004	...........
	491	123	-1.70681E-001	-1.70945E-001	3.98069E-004	...........
	492	123.25	-1.70771E-001	-1.71011E-001	3.96819E-004	...........
	493	123.5	-1.70857E-001	-1.71052E-001	3.99319E-004	...........
	494	123.75	-1.70932E-001	-1.71120E-001	3.99569E-004	...........
	495	124	-1.70998E-001	-1.71202E-001	3.99611E-004	...........
	496	124.25	-1.71061E-001	-1.71305E-001	3.99569E-004	...........
	497	124.5	-1.71129E-001	-1.71384E-001	4.00986E-004	...........
	498	124.75	-1.71205E-001	-1.71429E-001	3.99819E-004	...........
	499	125	-1.71285E-001	-1.71480E-001	3.99902E-004	...........
	500	125.25	-1.71359E-001	-1.71579E-001	4.03402E-004	...........
	501	125.5	-1.71428E-001	-1.71659E-001	3.95028E-004	...........
	502	125.75	-1.71497E-001	-1.71731E-001	3.99319E-004	...........
	503	126	-1.71571E-001	-1.71838E-001	3.93569E-004	...........
	504	126.25	-1.71651E-001	-1.71892E-001	3.92319E-004	...........
	505	126.5	-1.71732E-001	-1.71910E-001	3.99986E-004	...........
	506	126.75	-1.71805E-001	-1.71949E-001	3.98486E-004	...........
	507	127	-1.71866E-001	-1.72024E-001	3.93194E-004	...........
	508	127.25	-1.71916E-001	-1.72117E-001	3.97611E-004	...........
	509	127.5	-1.71969E-001	-1.72162E-001	3.97486E-004	...........
	510	127.75	-1.72029E-001	-1.72245E-001	3.94569E-004	...........
	511	128	-1.72096E-001	-1.72317E-001	3.95819E-004	...........
	512	128.25	-1.72166E-001	-1.72385E-001	4.01861E-004	...........
	513	128.5	-1.72238E-001	-1.72470E-001	3.98069E-004	...........
	514	128.75	-1.72311E-001	-1.72544E-001	3.97194E-004	...........
	515	129	-1.72385E-001	-1.72574E-001	3.94361E-004	...........
	516	129.25	-1.72455E-001	-1.72613E-001	3.95319E-004	...........
	517	129.5	-1.72518E-001	-1.72670E-001	3.95611E-004	...........
	518	129.75	-1.72571E-001	-1.72752E-001	3.93861E-004	...........
	519	130	-1.72623E-001	-1.72809E-001	4.00319E-004	...........
	520	130.25	-1.72679E-001	-1.72872E-001	4.01611E-004	...........
	521	130.5	-1.72740E-001	-1.72942E-001	4.03236E-004	...........
	522	130.75	-1.72804E-001	-1.72995E-001	3.97527E-004	...........
	523	131	-1.72868E-001	-1.73036E-001	4.02611E-004	...........
	524	131.25	-1.72929E-001	-1.73116E-001	4.01986E-004	...........
	525	131.5	-1.72988E-001	-1.73189E-001	4.00236E-004	...........
	526	131.75	-1.73046E-001	-1.73168E-001	3.95278E-004	...........
	527	132	-1.73101E-001	-1.73182E-001	3.95903E-004	...........
	528	132.25	-1.73144E-001	-1.73245E-001	3.97111E-004	...........
	529	132.5	-1.73176E-001	-1.73296E-001	3.98194E-004	...........
	530	132.75	-1.73207E-001	-1.73323E-001	3.89236E-004	...........
	531	133	-1.73243E-001	-1.73398E-001	3.95028E-004	...........
	532	133.25	-1.73287E-001	-1.73472E-001	3.97277E-004	...........
	533	133.5	-1.73338E-001	-1.73542E-001	3.98027E-004	...........
	534	133.75	-1.73398E-001	-1.73625E-001	3.93736E-004	...........
	535	134	-1.73467E-001	-1.73723E-001	4.03111E-004	...........
	536	134.25	-1.73543E-001	-1.73793E-001	4.03986E-004	...........
	537	134.5	-1.73622E-001	-1.73792E-001	4.04819E-004	...........
EOC	QUANT	-0.1736219	Open Circuit (V)
PSTATMODEL	IQUANT	4	Pstat Model
PSTATSECTION	LABEL	REF600-19025	Pstat Section
PSTATSERIALNO	LABEL	19025	Pstat Serial Number
CTRLMODE	IQUANT	1	Control Mode
IESTAB	IQUANT	2	I/E Stability
CASPEED	IQUANT	2	Control Amp Speed
CONVENTION	IQUANT	1	Current Convention
ICHRANGE	IQUANT	2	Ich Range
ICHRANGEMODE	TOGGLE	T	Ich Auto Range
ICHOFFSETENABLE	TOGGLE	F	Ich Offset Enable
ICHOFFSET	QUANT	0	Ich Offset (V)
ICHFILTER	IQUANT	3	Ich Filter
VCHRANGE	IQUANT	3	Vch Range
VCHRANGEMODE	TOGGLE	T	Vch Auto Range
VCHOFFSETENABLE	TOGGLE	F	Vch Offset Enable
VCHOFFSET	QUANT	0	Vch Offset (V)
VCHFILTER	IQUANT	3	Vch Filter
ACHRANGE	IQUANT	2	Ach Range
ACHOFFSETENABLE	TOGGLE	F	Ach Offset Enable
ACHOFFSET	QUANT	0	Ach Offset (V)
ACHFILTER	IQUANT	3	Ach Filter
IERANGELOWERLIMIT	IQUANT	4	I/E Range Lower Limit
IERANGEMODE	TOGGLE	T	I/E AutoRange
IERANGE	IQUANT	10	I/E Range
POSFEEDENABLE	TOGGLE	F	Positive Feedback IR Comp
POSFEEDRESISTANCE	QUANT	0	Positive Feedback Resistance (ohm)
ACHSELECT	IQUANT	0	Ach Select
CABLEID	IQUANT	13	Cable ID
DCCALDATE	LABEL	2017-4-11	DC Calibration Date
ACCALDATE	LABEL	2017-4-11	AC Calibration Date
THERMOSELECT	IQUANT	1	Thermo Select
FRAMEWORKVERSION	QUANT	6.04	Framework Version
INSTRUMENTVERSION	LABEL	3.04	Instrument Version
CURVE	TABLE	81
	Pt	T	Vf	Im	Vu	Sig	Ach	IERange	Over
	#	s	V vs. Ref.	A	V	V	V	#	bits
	0	0.5	-6.73290E-001	-3.88081E-010	0.00000E+000	-6.73600E-001	4.06961E-004	4	...........
	1	1	-6.48291E-001	-3.28298E-010	0.00000E+000	-6.48600E-001	4.15711E-004	4	...........
	2	1.5	-6.23352E-001	-2.84636E-010	0.00000E+000	-6.23600E-001	4.00761E-004	4	...........
	3	2	-5.98347E-001	-2.47389E-010	0.00000E+000	-5.98600E-001	4.11894E-004	4	...........
	4	2.5	-5.73385E-001	-2.14054E-010	0.00000E+000	-5.73600E-001	4.03277E-004	4	...........
	5	3	-5.48400E-001	-1.83940E-010	0.00000E+000	-5.48600E-001	4.07544E-004	4	...........
	6	3.5	-5.23404E-001	-1.56535E-010	0.00000E+000	-5.23600E-001	4.08711E-004	4	...........
	7	4	-4.98450E-001	-1.30551E-010	0.00000E+000	-4.98600E-001	4.03011E-004	4	...........
	8	4.5	-4.73469E-001	-1.06558E-010	0.00000E+000	-4.73600E-001	4.11027E-004	4	...........
	9	5	-4.48465E-001	-8.44383E-011	0.00000E+000	-4.48600E-001	4.06044E-004	4	...........
	10	5.5	-4.23497E-001	-6.37858E-011	0.00000E+000	-4.23600E-001	4.13994E-004	4	...........
	11	6	-3.98478E-001	-4.55682E-011	0.00000E+000	-3.98600E-001	4.08177E-004	4	...........
	12	6.5	-3.73489E-001	-2.80551E-011	0.00000E+000	-3.73600E-001	4.07677E-004	4	...........
	13	7	-3.48501E-001	-1.24605E-011	0.00000E+000	-3.48600E-001	4.14794E-004	4	...........
	14	7.5	-3.23496E-001	1.41565E-012	0.00000E+000	-3.23600E-001	3.98477E-004	4	...........
	15	8	-2.98536E-001	1.37138E-011	0.00000E+000	-2.98600E-001	4.09194E-004	4	...........
	16	8.5	-2.73550E-001	2.45932E-011	0.00000E+000	-2.73600E-001	3.97244E-004	4	...........
	17	9	-2.48570E-001	3.32312E-011	0.00000E+000	-2.48600E-001	4.09677E-004	4	...........
	18	9.5	-2.23575E-001	3.92344E-011	0.00000E+000	-2.23600E-001	4.06561E-004	4	...........
	19	10	-1.98547E-001	4.46626E-011	0.00000E+000	-1.98600E-001	4.02244E-004	4	...........
	20	10.5	-1.73554E-001	4.84318E-011	0.00000E+000	-1.73600E-001	4.04994E-004	4	...........
	21	11	-1.48558E-001	5.01769E-011	0.00000E+000	-1.48600E-001	3.98644E-004	4	...........
	22	11.5	-1.23566E-001	5.08316E-011	0.00000E+000	-1.23600E-001	4.11027E-004	4	...........
	23	12	-9.85896E-002	5.13246E-011	0.00000E+000	-9.86000E-002	4.04794E-004	4	...........
	24	12.5	-7.35916E-002	5.07605E-011	0.00000E+000	-7.36000E-002	4.14461E-004	4	...........
	25	13	-4.86065E-002	4.94555E-011	0.00000E+000	-4.86000E-002	4.08694E-004	4	...........
	26	13.5	-2.36152E-002	4.77051E-011	0.00000E+000	-2.36000E-002	4.10144E-004	4	...........
	27	14	1.37475E-003	4.59187E-011	0.00000E+000	1.40002E-003	4.14877E-004	4	...........
	28	14.5	2.63723E-002	4.44986E-011	0.00000E+000	2.64000E-002	4.05461E-004	4	...........
	29	15	3.26718E-002	4.35013E-011	0.00000E+000	5.14000E-002	4.12277E-004	4	.........v.
	30	15.5	7.63524E-002	4.20485E-011	0.00000E+000	7.64000E-002	4.08461E-004	4	...........
	31	16	1.01327E-001	4.17475E-011	0.00000E+000	1.01400E-001	4.11794E-004	4	...........
	32	16.5	1.26315E-001	4.12109E-011	0.00000E+000	1.26400E-001	4.13744E-004	4	...........
	33	17	1.51307E-001	4.12729E-011	0.00000E+000	1.51400E-001	4.11061E-004	4	...........
	34	17.5	1.76297E-001	4.21952E-011	0.00000E+000	1.76400E-001	4.13711E-004	4	...........
	35	18	2.01299E-001	4.27609E-011	0.00000E+000	2.01400E-001	4.06244E-004	4	...........
	36	18.5	2.26269E-001	4.47953E-011	0.00000E+000	2.26400E-001	4.14194E-004	4	...........
	37	19	2.51258E-001	4.72894E-011	0.00000E+000	2.51400E-001	4.10844E-004	4	...........
	38	19.5	2.76247E-001	4.88788E-011	0.00000E+000	2.76400E-001	4.11694E-004	4	...........
	39	20	3.01270E-001	5.24816E-011	0.00000E+000	3.01400E-001	4.09311E-004	4	...........
	40	20.5	3.26270E-001	5.71095E-011	0.00000E+000	3.26400E-001	4.10127E-004	4	...........
	41	21	3.51247E-001	6.12413E-011	0.00000E+000	3.51400E-001	4.16161E-004	4	...........
	42	21.5	3.76228E-001	6.74449E-011	0.00000E+000	3.76400E-001	4.10994E-004	4	...........
	43	22	4.01252E-001	7.49018E-011	0.00000E+000	4.01400E-001	4.19360E-004	4	...........
	44	22.5	4.26252E-001	8.23171E-011	0.00000E+000	4.26400E-001	4.13827E-004	4	...........
	45	23	4.51236E-001	9.24485E-011	0.00000E+000	4.51400E-001	4.14377E-004	4	...........
	46	23.5	4.76220E-001	1.03099E-010	0.00000E+000	4.76400E-001	4.07644E-004	4	...........
	47	24	5.01227E-001	1.15529E-010	0.00000E+000	5.01400E-001	4.06644E-004	4	...........
	48	24.5	5.26202E-001	1.29235E-010	0.00000E+000	5.26400E-001	4.10477E-004	4	...........
	49	25	5.51184E-001	1.45106E-010	0.00000E+000	5.51400E-001	4.02844E-004	4	...........
	50	25.5	5.76168E-001	1.60892E-010	0.00000E+000	5.76400E-001	4.10777E-004	4	...........
	51	26	6.01166E-001	1.78435E-010	0.00000E+000	6.01400E-001	3.98277E-004	4	...........
	52	26.5	6.26176E-001	1.96916E-010	0.00000E+000	6.26400E-001	4.11344E-004	4	...........
	53	27	6.51174E-001	2.14788E-010	0.00000E+000	6.51400E-001	4.05677E-004	4	...........
	54	27.5	6.76164E-001	2.34593E-010	0.00000E+000	6.76400E-001	4.13927E-004	4	...........
	55	28	7.01147E-001	2.53293E-010	0.00000E+000	7.01400E-001	4.13311E-004	4	...........
	56	28.5	7.26141E-001	2.74498E-010	0.00000E+000	7.26400E-001	4.00994E-004	4	...........
	57	29	7.51108E-001	2.95025E-010	0.00000E+000	7.51400E-001	4.15577E-004	4	...........
	58	29.5	7.76114E-001	3.15920E-010	0.00000E+000	7.76400E-001	4.06744E-004	4	...........
	59	30	8.01074E-001	3.38901E-010	0.00000E+000	8.01400E-001	4.14827E-004	4	...........
	60	30.5	8.26083E-001	3.63024E-010	0.00000E+000	8.26400E-001	4.04344E-004	4	...........
	61	31	8.51066E-001	3.88589E-010	0.00000E+000	8.51400E-001	4.04894E-004	4	...........
	62	31.5	8.76064E-001	4.17134E-010	0.00000E+000	8.76400E-001	4.06844E-004	4	...........
	63	32	9.01036E-001	4.47154E-010	0.00000E+000	9.01400E-001	4.00911E-004	4	...........
	64	32.5	9.26039E-001	4.80755E-010	0.00000E+000	9.26400E-001	4.16061E-004	4	...........
	65	33	9.50994E-001	5.17191E-010	0.00000E+000	9.51400E-001	4.03144E-004	4	...........
	66	33.5	9.76004E-001	5.59537E-010	0.00000E+000	9.76400E-001	4.17794E-004	4	...........
	67	34	1.00100E+000	6.09755E-010	0.00000E+000	1.00140E+000	4.08327E-004	4	...........
	68	34.5	1.02601E+000	6.71032E-010	0.00000E+000	1.02640E+000	4.15394E-004	4	...........
	69	35	1.05100E+000	7.50271E-010	0.00000E+000	1.05140E+000	4.11061E-004	4	...........
	70	35.5	1.07598E+000	8.54206E-010	0.00000E+000	1.07640E+000	4.11644E-004	4	...........
	71	36	1.10097E+000	1.01061E-009	0.00000E+000	1.10140E+000	4.13627E-004	4	...........
	72	36.5	1.12599E+000	1.29710E-009	0.00000E+000	1.12640E+000	3.98727E-004	4	...........
	73	37	1.15095E+000	2.29400E-009	0.00000E+000	1.15140E+000	4.15777E-004	4	...........
	74	37.5	1.17590E+000	1.21205E-008	0.00000E+000	1.17640E+000	4.09327E-004	4	...........
	75	38	1.20064E+000	5.87658E-008	0.00000E+000	1.20140E+000	4.15610E-004	4	...........
	76	38.5	1.22584E+000	1.26070E-007	0.00000E+000	1.22640E+000	4.11461E-004	5	...........
	77	39	1.25077E+000	3.39319E-007	0.00000E+000	1.25140E+000	4.04994E-004	5	...........
	78	39.5	1.27528E+000	6.55353E-007	0.00000E+000	1.27640E+000	4.12811E-004	5	....ih..i..
	79	40	1.30078E+000	3.27031E-006	0.00000E+000	1.30140E+000	4.11911E-004	6	...........
	80	40.5	1.32568E+000	4.69873E-006	0.00000E+000	1.32640E+000	4.15577E-004	6	...........
